Far field
"Theta"[deg]	"Phi = 0 deg [m^2]"	"Phi = 90 deg [m^2]"	
0.00000000E+00	1.52101442E+00	1.52101442E+00	
1.00000000E+00	1.52068485E+00	1.52084254E+00	
2.00000000E+00	1.51970221E+00	1.52068364E+00	
3.00000000E+00	1.51806196E+00	1.52053455E+00	
4.00000000E+00	1.51575675E+00	1.52038927E+00	
5.00000000E+00	1.51277645E+00	1.52023898E+00	
6.00000000E+00	1.50910800E+00	1.52007213E+00	
7.00000000E+00	1.50473543E+00	1.51987445E+00	
8.00000000E+00	1.49963971E+00	1.51962909E+00	
9.00000000E+00	1.49379880E+00	1.51931664E+00	
1.00000000E+01	1.48718757E+00	1.51891529E+00	
1.10000000E+01	1.47977787E+00	1.51840097E+00	
1.20000000E+01	1.47153863E+00	1.51774743E+00	
1.30000000E+01	1.46243600E+00	1.51692651E+00	
1.40000000E+01	1.45243365E+00	1.51590823E+00	
1.50000000E+01	1.44149309E+00	1.51466108E+00	
1.60000000E+01	1.42957417E+00	1.51315222E+00	
1.70000000E+01	1.41663567E+00	1.51134772E+00	
1.80000000E+01	1.40263602E+00	1.50921289E+00	
1.90000000E+01	1.38753418E+00	1.50671255E+00	
2.00000000E+01	1.37129065E+00	1.50381135E+00	
2.10000000E+01	1.35386855E+00	1.50047417E+00	
2.20000000E+01	1.33523499E+00	1.49666643E+00	
2.30000000E+01	1.31536237E+00	1.49235455E+00	
2.40000000E+01	1.29422994E+00	1.48750632E+00	
2.50000000E+01	1.27182537E+00	1.48209133E+00	
2.60000000E+01	1.24814642E+00	1.47608146E+00	
2.70000000E+01	1.22320267E+00	1.46945132E+00	
2.80000000E+01	1.19701724E+00	1.46217869E+00	
2.90000000E+01	1.16962849E+00	1.45424506E+00	
3.00000000E+01	1.14109172E+00	1.44563606E+00	
3.10000000E+01	1.11148072E+00	1.43634193E+00	
3.20000000E+01	1.08088926E+00	1.42635801E+00	
3.30000000E+01	1.04943235E+00	1.41568519E+00	
3.40000000E+01	1.01724732E+00	1.40433030E+00	
3.50000000E+01	9.84494637E-01	1.39230657E+00	
3.60000000E+01	9.51358470E-01	1.37963393E+00	
3.70000000E+01	9.18046860E-01	1.36633938E+00	
3.80000000E+01	8.84791559E-01	1.35245721E+00	
3.90000000E+01	8.51847462E-01	1.33802930E+00	
4.00000000E+01	8.19491601E-01	1.32310518E+00	
4.10000000E+01	7.88021683E-01	1.30774217E+00	
4.20000000E+01	7.57754161E-01	1.29200533E+00	
4.30000000E+01	7.29021807E-01	1.27596742E+00	
4.40000000E+01	7.02170808E-01	1.25970872E+00	
4.50000000E+01	6.77557365E-01	1.24331670E+00	
4.60000000E+01	6.55543830E-01	1.22688570E+00	
4.70000000E+01	6.36494384E-01	1.21051645E+00	
4.80000000E+01	6.20770300E-01	1.19431542E+00	
4.90000000E+01	6.08724828E-01	1.17839420E+00	
5.00000000E+01	6.00697753E-01	1.16286864E+00	
5.10000000E+01	5.97009685E-01	1.14785794E+00	
5.20000000E+01	5.97956158E-01	1.13348367E+00	
5.30000000E+01	6.03801605E-01	1.11986862E+00	
5.40000000E+01	6.14773303E-01	1.10713559E+00	
5.50000000E+01	6.31055385E-01	1.09540615E+00	
5.60000000E+01	6.52783015E-01	1.08479921E+00	
5.70000000E+01	6.80036821E-01	1.07542968E+00	
5.80000000E+01	7.12837721E-01	1.06740694E+00	
5.90000000E+01	7.51142227E-01	1.06083341E+00	
6.00000000E+01	7.94838350E-01	1.05580300E+00	
6.10000000E+01	8.43742218E-01	1.05239968E+00	
6.20000000E+01	8.97595506E-01	1.05069598E+00	
6.30000000E+01	9.56063786E-01	1.05075163E+00	
6.40000000E+01	1.01873588E+00	1.05261223E+00	
6.50000000E+01	1.08512433E+00	1.05630799E+00	
6.60000000E+01	1.15466699E+00	1.06185270E+00	
6.70000000E+01	1.22672989E+00	1.06924276E+00	
6.80000000E+01	1.30061135E+00	1.07845638E+00	
6.90000000E+01	1.37554735E+00	1.08945304E+00	
7.00000000E+01	1.45071826E+00	1.10217310E+00	
7.10000000E+01	1.52525681E+00	1.11653769E+00	
7.20000000E+01	1.59825727E+00	1.13244882E+00	
7.30000000E+01	1.66878593E+00	1.14978972E+00	
7.40000000E+01	1.73589253E+00	1.16842558E+00	
7.50000000E+01	1.79862277E+00	1.18820439E+00	
7.60000000E+01	1.85603166E+00	1.20895822E+00	
7.70000000E+01	1.90719757E+00	1.23050464E+00	
7.80000000E+01	1.95123681E+00	1.25264857E+00	
7.90000000E+01	1.98731849E+00	1.27518422E+00	
8.00000000E+01	2.01467959E+00	1.29789739E+00	
8.10000000E+01	2.03263981E+00	1.32056796E+00	
8.20000000E+01	2.04061611E+00	1.34297254E+00	
8.30000000E+01	2.03813662E+00	1.36488733E+00	
8.40000000E+01	2.02485368E+00	1.38609109E+00	
8.50000000E+01	2.00055569E+00	1.40636818E+00	
8.60000000E+01	1.96517767E+00	1.42551167E+00	
8.70000000E+01	1.91881000E+00	1.44332642E+00	
8.80000000E+01	1.86170547E+00	1.45963215E+00	
8.90000000E+01	1.79428404E+00	1.47426635E+00	
9.00000000E+01	1.71713543E+00	1.48708713E+00	
9.10000000E+01	1.63101918E+00	1.49797576E+00	
9.20000000E+01	1.53686209E+00	1.50683908E+00	
9.30000000E+01	1.43575297E+00	1.51361154E+00	
9.40000000E+01	1.32893466E+00	1.51825692E+00	
9.50000000E+01	1.21779322E+00	1.52076978E+00	
9.60000000E+01	1.10384444E+00	1.52117636E+00	
9.70000000E+01	9.88717659E-01	1.51953522E+00	
9.80000000E+01	8.74137119E-01	1.51593737E+00	
9.90000000E+01	7.61900998E-01	1.51050594E+00	
1.00000000E+02	6.53858373E-01	1.50339557E+00	
1.01000000E+02	5.51884429E-01	1.49479117E+00	
1.02000000E+02	4.57854242E-01	1.48490650E+00	
1.03000000E+02	3.73615533E-01	1.47398226E+00	
1.04000000E+02	3.00960823E-01	1.46228390E+00	
1.05000000E+02	2.41599445E-01	1.45009923E+00	
1.06000000E+02	1.97129901E-01	1.43773569E+00	
1.07000000E+02	1.69013082E-01	1.42551767E+00	
1.08000000E+02	1.58546850E-01	1.41378358E+00	
1.09000000E+02	1.66842501E-01	1.40288310E+00	
1.10000000E+02	1.94803625E-01	1.39317438E+00	
1.11000000E+02	2.43107830E-01	1.38502153E+00	
1.12000000E+02	3.12191783E-01	1.37879226E+00	
1.13000000E+02	4.02239989E-01	1.37485589E+00	
1.14000000E+02	5.13177645E-01	1.37358176E+00	
1.15000000E+02	6.44667869E-01	1.37533804E+00	
1.16000000E+02	7.96113523E-01	1.38049104E+00	
1.17000000E+02	9.66663768E-01	1.38940505E+00	
1.18000000E+02	1.15522539E+00	1.40244272E+00	
1.19000000E+02	1.36047890E+00	1.41996596E+00	
1.20000000E+02	1.58089916E+00	1.44233740E+00	
1.21000000E+02	1.81478048E+00	1.46992226E+00	
1.22000000E+02	2.06026566E+00	1.50309078E+00	
1.23000000E+02	2.31537865E+00	1.54222085E+00	
1.24000000E+02	2.57806036E+00	1.58770107E+00	
1.25000000E+02	2.84620680E+00	1.63993380E+00	
1.26000000E+02	3.11770919E+00	1.69933840E+00	
1.27000000E+02	3.39049500E+00	1.76635424E+00	
1.28000000E+02	3.66256924E+00	1.84144351E+00	
1.29000000E+02	3.93205527E+00	1.92509362E+00	
1.30000000E+02	4.19723409E+00	2.01781895E+00	
1.31000000E+02	4.45658137E+00	2.12016195E+00	
1.32000000E+02	4.70880136E+00	2.23269332E+00	
1.33000000E+02	4.95285685E+00	2.35601107E+00	
1.34000000E+02	5.18799447E+00	2.49073850E+00	
1.35000000E+02	5.41376458E+00	2.63752085E+00	
1.36000000E+02	5.63003525E+00	2.79702056E+00	
1.37000000E+02	5.83699975E+00	2.96991103E+00	
1.38000000E+02	6.03517721E+00	3.15686901E+00	
1.39000000E+02	6.22540630E+00	3.35856542E+00	
1.40000000E+02	6.40883166E+00	3.57565473E+00	
1.41000000E+02	6.58688333E+00	3.80876297E+00	
1.42000000E+02	6.76124925E+00	4.05847455E+00	
1.43000000E+02	6.93384129E+00	4.32531788E+00	
1.44000000E+02	7.10675523E+00	4.60975019E+00	
1.45000000E+02	7.28222544E+00	4.91214159E+00	
1.46000000E+02	7.46257506E+00	5.23275882E+00	
1.47000000E+02	7.65016251E+00	5.57174884E+00	
1.48000000E+02	7.84732546E+00	5.92912262E+00	
1.49000000E+02	8.05632329E+00	6.30473962E+00	
1.50000000E+02	8.27927931E+00	6.69829300E+00	
1.51000000E+02	8.51812388E+00	7.10929631E+00	
1.52000000E+02	8.77453970E+00	7.53707168E+00	
1.53000000E+02	9.04991046E+00	7.98074004E+00	
1.54000000E+02	9.34527408E+00	8.43921373E+00	
1.55000000E+02	9.66128167E+00	8.91119160E+00	
1.56000000E+02	9.99816303E+00	9.39515714E+00	
1.57000000E+02	1.03557000E+01	9.88937963E+00	
1.58000000E+02	1.07332078E+01	1.03919186E+01	
1.59000000E+02	1.11295258E+01	1.09006317E+01	
1.60000000E+02	1.15430171E+01	1.14131862E+01	
1.61000000E+02	1.19715784E+01	1.19270735E+01	
1.62000000E+02	1.24126586E+01	1.24396275E+01	
1.63000000E+02	1.28632876E+01	1.29480460E+01	
1.64000000E+02	1.33201141E+01	1.34494152E+01	
1.65000000E+02	1.37794512E+01	1.39407366E+01	
1.66000000E+02	1.42373301E+01	1.44189570E+01	
1.67000000E+02	1.46895613E+01	1.48809999E+01	
1.68000000E+02	1.51317997E+01	1.53237986E+01	
1.69000000E+02	1.55596157E+01	1.57443303E+01	
1.70000000E+02	1.59685684E+01	1.61396514E+01	
1.71000000E+02	1.63542808E+01	1.65069315E+01	
1.72000000E+02	1.67125145E+01	1.68434881E+01	
1.73000000E+02	1.70392439E+01	1.71468196E+01	
1.74000000E+02	1.73307264E+01	1.74146362E+01	
1.75000000E+02	1.75835692E+01	1.76448893E+01	
1.76000000E+02	1.77947897E+01	1.78357979E+01	
1.77000000E+02	1.79618689E+01	1.79858714E+01	
1.78000000E+02	1.80827973E+01	1.80939297E+01	
1.79000000E+02	1.81561110E+01	1.81591180E+01	
1.80000000E+02	1.81809187E+01	1.81809187E+01	
